<---- Time-Dependent Solver 1 in Study 1/Solution 1 (sol1) ---------------------
Time-dependent solver (BDF)
Number of degrees of freedom solved for: 8374 (plus 5325 internal DOFs).
Nonsymmetric matrix found.
Scales for dependent variables:
Pressure (comp1.p): 0.096
Velocity field (comp1.u): 0.075
Lagrange multiplier for velocity field (comp1.u_lm): 1
State variable X (comp1.ODE1): 2.9e-05
State variable Xdot (comp1.ODE2): 0.0001
Step        Time    Stepsize      Res  Jac  Sol Order Tfail NLfail   LinErr   LinRes
   0           0           - out    8    3    8                  0  2.2e-12  2.9e-14
   1  7.1971e-07  7.1971e-07       10    4   10     1     0      0  1.5e-11  2.7e-15
   2  1.4394e-06  7.1971e-07       12    5   12     1     0      0  1.9e-12  9.3e-16
   3  2.8789e-06  1.4394e-06       15    6   15     2     0      0  4.9e-13  3.4e-13
   4  4.1743e-06  1.2955e-06       19    7   19     2     0      0  2.6e-14  5.5e-15
   5  5.4698e-06  1.2955e-06       22    8   22     1     0      0  9.3e-14  6.5e-16
   6  6.7653e-06  1.2955e-06       24    9   24     1     0      0    1e-13  3.4e-16
   7  9.3563e-06   2.591e-06       26   10   26     1     0      0  6.3e-14  5.9e-16
   8  1.4538e-05  5.1819e-06       28   11   28     1     0      0    8e-15  7.9e-16
   9   1.972e-05  5.1819e-06       30   12   30     1     0      0    4e-14  1.4e-15
  10  3.0084e-05  1.0364e-05       32   13   32     1     0      0  8.1e-15  2.1e-15
  11  3.8802e-05  8.7176e-06       34   14   34     1     0      0  2.1e-14  1.8e-15
  12  4.7519e-05  8.7176e-06       36   15   36     1     0      0  2.7e-14  1.3e-15
  13  5.5365e-05  7.8458e-06       38   16   38     1     0      0  5.2e-14  2.7e-15
  14  6.3211e-05  7.8458e-06       40   17   40     1     0      0  3.9e-14  1.6e-15
  15  7.0272e-05  7.0612e-06       42   18   42     1     0      0  2.7e-14  2.5e-15
  16  7.6627e-05  6.3551e-06       44   19   44     1     0      0  1.3e-13  2.2e-15
  17  8.2982e-05  6.3551e-06       46   20   46     1     0      0  1.9e-13  6.3e-16
  18  8.8702e-05  5.7196e-06       48   21   48     1     0      0  7.8e-14  1.1e-14
  19  9.4421e-05  5.7196e-06       50   22   50     1     0      0    3e-13  1.4e-15
  20  9.9569e-05  5.1476e-06       52   23   52     1     0      0  2.2e-13  1.8e-15
  21  0.00010472  5.1476e-06       54   24   54     1     0      0  3.8e-13  3.1e-15
  22  0.00010986  5.1476e-06       56   25   56     1     0      0  4.2e-14  1.6e-15
  23  0.00012016  1.0295e-05       58   26   58     2     0      0  6.2e-14  2.7e-14
  24  0.00013045  1.0295e-05       60   27   60     2     0      0  2.4e-13  1.1e-15
  25  0.00014075  1.0295e-05       62   28   62     2     0      0  9.9e-14  7.6e-16
  26  0.00016134  2.0591e-05       64   29   64     2     0      0  1.4e-13  2.4e-15
  27  0.00018193  2.0591e-05       66   30   66     2     0      0  1.4e-13  1.6e-15
  28  0.00020252  2.0591e-05       68   31   68     2     0      0  1.1e-13  9.1e-16
  29   0.0002437  4.1181e-05       70   32   70     2     0      0  2.7e-14    6e-15
  30  0.00028488  4.1181e-05       72   33   72     2     0      0  6.1e-14  1.2e-15
  31  0.00032607  4.1181e-05       74   34   74     2     0      0  4.5e-14  9.8e-16
  32  0.00040843  8.2362e-05       76   35   76     2     0      0  3.8e-14  4.7e-15
  33  0.00049079  8.2362e-05       78   36   78     2     0      0  6.7e-15  3.6e-15
  34  0.00057315  8.2362e-05       80   37   80     2     0      0  5.4e-15  1.3e-15
  35  0.00073788  0.00016472       82   38   82     2     0      0  6.3e-15  1.7e-15
  36   0.0009026  0.00016472       84   39   84     2     0      0  1.5e-14  3.3e-15
  37   0.0010673  0.00016472       86   40   86     2     0      0  3.1e-15  9.2e-16
  38   0.0013968  0.00032945       88   41   88     2     0      0  2.6e-15    1e-15
  39   0.0017262  0.00032945       90   42   90     2     0      0    1e-14  3.8e-15
  40   0.0020557  0.00032945       92   43   92     2     0      0  1.3e-14  2.4e-15
  41   0.0023851  0.00032945       94   44   94     2     0      0  4.5e-15  1.7e-15
  42    0.003044   0.0006589       96   45   96     2     0      0  1.9e-15  2.8e-16
  43   0.0037029   0.0006589       98   46   98     2     0      0  8.8e-15  8.9e-16
  44   0.0043618   0.0006589      100   47  100     2     0      0  1.9e-14  1.8e-15
  45   0.0050207   0.0006589      102   48  102     2     0      0  1.2e-14  3.3e-16
  46   0.0056796   0.0006589      104   49  104     2     0      0  1.4e-14  1.5e-15
  47   0.0069974   0.0013178      106   50  106     2     0      0  1.3e-14  1.3e-15
  48   0.0083152   0.0013178      108   51  108     2     0      0  2.4e-14  2.1e-15
  49    0.009633   0.0013178      110   52  110     2     0      0  1.4e-14  7.2e-16
  50    0.010951   0.0013178      112   53  112     2     0      0  8.1e-15  1.8e-15
  51    0.012269   0.0013178      114   54  114     2     0      0  3.1e-15    2e-15
  52    0.013586   0.0013178      116   55  116     2     0      0  1.3e-14    1e-15
  53    0.016222   0.0026356      118   56  118     2     0      0  4.1e-15  2.8e-16
  54    0.018594    0.002372      120   57  120     2     0      0    3e-15  8.7e-16
  55    0.020966    0.002372      122   58  122     2     0      0  5.3e-15  3.4e-16
  56    0.023338    0.002372      124   59  124     2     0      0  5.2e-15  7.7e-16
   -       0.025           - out
  57     0.02571    0.002372      126   60  126     2     0      0  1.6e-15    4e-16
  58    0.028082    0.002372      128   61  128     2     0      0  1.2e-15  3.7e-16
  59    0.030454    0.002372      130   62  130     2     0      0  3.9e-15  2.2e-16
  60    0.032826    0.002372      132   63  132     2     0      0  3.6e-15    5e-16
  61    0.035198    0.002372      134   64  134     2     0      0    3e-15  2.9e-16
  62     0.03757    0.002372      136   65  136     2     0      0  4.2e-15  2.5e-16
  63    0.039942    0.002372      138   66  138     2     0      0  4.3e-15  2.8e-16
  64    0.042314    0.002372      140   67  140     2     0      0    2e-15  2.3e-16
  65    0.044686    0.002372      142   68  142     2     0      0  2.6e-15  3.6e-16
  66    0.047058    0.002372      144   69  144     2     0      0  8.9e-15  3.8e-16
  67     0.04943    0.002372      146   70  146     2     0      0  2.4e-15  2.9e-16
   -        0.05           - out
  68    0.051802    0.002372      148   71  148     2     0      0  3.1e-15    3e-16
  69    0.054175    0.002372      150   72  150     2     0      0  1.4e-14  4.2e-16
  70    0.056547    0.002372      152   73  152     2     0      0    1e-14  4.3e-16
  71    0.058919    0.002372      154   74  154     2     0      0  5.3e-15  9.2e-16
  72    0.061291    0.002372      156   75  156     2     0      0  2.4e-14  4.5e-16
  73    0.063663    0.002372      158   76  158     2     0      0  8.7e-15  3.2e-16
  74    0.066035    0.002372      160   77  160     2     0      0  3.5e-15  3.7e-16
  75    0.068407    0.002372      162   78  162     2     0      0  1.1e-14  3.3e-16
  76    0.070779    0.002372      164   79  164     2     0      0  2.2e-14  3.4e-16
  77    0.073151    0.002372      166   80  166     2     0      0  2.9e-14  1.2e-15
   -       0.075           - out
  78    0.075523    0.002372      168   81  168     2     0      0  2.4e-14  2.2e-15
  79    0.080267   0.0047441      170   82  170     2     0      0  9.1e-15  3.3e-16
  80    0.085011   0.0047441      172   83  172     2     0      0  1.4e-14  1.8e-16
  81    0.089755   0.0047441      174   84  174     2     0      0  6.8e-15  6.5e-16
  82    0.094499   0.0047441      176   85  176     2     0      0  4.5e-15  1.1e-16
  83    0.099243   0.0047441      178   86  178     2     0      0  3.9e-15  3.5e-16
   -         0.1           - out
  84     0.10399   0.0047441      180   87  180     2     0      0  6.3e-15    6e-16
  85     0.10873   0.0047441      182   88  182     2     0      0  4.9e-15  1.8e-16
  86     0.11348   0.0047441      184   89  184     2     0      0  2.3e-14  4.7e-16
  87     0.12296   0.0094881      186   90  186     2     0      0  4.1e-15  2.7e-16
   -       0.125           - out
  88     0.13245   0.0094881      188   91  188     2     0      0  5.2e-15  4.2e-16
  89     0.14194   0.0094881      190   92  190     2     0      0    2e-15  6.7e-17
   -        0.15           - out
  90     0.15143   0.0094881      192   93  192     2     0      0  2.2e-14  2.9e-16
  91     0.16092   0.0094881      194   94  194     2     0      0  4.1e-15  1.4e-16
  92      0.1704   0.0094881      196   95  196     2     0      0  1.9e-14    3e-16
   -       0.175           - out
  93     0.17989   0.0094881      198   96  198     2     0      0  5.7e-15  1.2e-16
  94     0.18938   0.0094881      200   97  200     2     0      0    3e-15  2.8e-16
   -         0.2           - out
  95     0.20836    0.018976      202   98  202     2     0      0  3.4e-15  2.9e-16
   -       0.225           - out
  96     0.22733    0.018976      204   99  204     2     0      0  4.4e-15  6.2e-17
  97     0.24631    0.018976      206  100  206     2     0      0  5.3e-15  1.1e-16
   -        0.25           - out
  98     0.26529    0.018976      208  101  208     2     0      0  4.6e-15    1e-16
   -       0.275           - out
  99     0.28426    0.018976      210  102  210     2     0      0  2.4e-15  1.2e-16
   -         0.3           - out
 100     0.30324    0.018976      212  103  212     2     0      0  4.9e-15  1.8e-16
 101     0.32221    0.018976      214  104  214     2     0      0  2.3e-15  8.6e-17
   -       0.325           - out
 102     0.34119    0.018976      216  105  216     2     0      0  2.9e-15    1e-16
   -        0.35           - out
 103       0.375    0.033809 out  218  106  218     2     0      0  1.9e-15    5e-17
 104         0.4       0.025 out  220  107  220     2     0      0  2.6e-15  7.4e-17
 105       0.425       0.025 out  222  108  222     2     0      0  1.8e-15  1.3e-16
 106        0.45       0.025 out  224  109  224     2     0      0  3.8e-15  8.4e-17
 107       0.475       0.025 out  226  110  226     2     0      0  3.9e-15  6.8e-17
 108         0.5       0.025 out  228  111  228     2     0      0    4e-15    2e-16
 109       0.525       0.025 out  230  112  230     2     0      0  1.8e-15  1.2e-16
 110        0.55       0.025 out  232  113  232     2     0      0  3.2e-15  7.5e-17
 111       0.575       0.025 out  234  114  234     2     0      0    5e-15  1.2e-16
 112         0.6       0.025 out  236  115  236     2     0      0  2.5e-15  5.8e-17
 113       0.625       0.025 out  238  116  238     2     0      0  1.5e-15  1.5e-16
 114        0.65       0.025 out  240  117  240     2     0      0  3.9e-15  5.5e-17
 115       0.675       0.025 out  242  118  242     2     0      0  3.8e-15  4.6e-17
 116         0.7       0.025 out  244  119  244     2     0      0  4.2e-15  1.3e-16
 117       0.725       0.025 out  245  120  245     2     0      0  1.5e-15  5.7e-17
 118        0.75       0.025 out  246  121  246     2     0      0    2e-15  7.9e-17
 119       0.775       0.025 out  247  122  247     2     0      0  1.8e-15    1e-16
 120         0.8       0.025 out  248  123  248     2     0      0  1.8e-15  8.7e-17
 121       0.825       0.025 out  249  124  249     2     0      0  1.8e-15  1.7e-16
 122        0.85       0.025 out  250  125  250     2     0      0  2.6e-15  5.7e-17
 123       0.875       0.025 out  251  126  251     2     0      0  2.8e-15  1.2e-16
 124         0.9       0.025 out  252  127  252     2     0      0    2e-15  1.5e-16
 125       0.925       0.025 out  253  128  253     2     0      0  2.7e-15  5.3e-17
 126        0.95       0.025 out  254  129  254     2     0      0  1.6e-15  7.3e-17
 127       0.975       0.025 out  255  130  255     2     0      0  4.2e-15  5.4e-17
 128           1       0.025 out  256  131  256     2     0      0  3.1e-15  5.9e-17
Time-stepping completed.
Solution time: 11 s.
Physical memory: 1.16 GB
Virtual memory: 1.38 GB
Ended at Sep 25, 2023, 1:41:20 PM.
----- Time-Dependent Solver 1 in Study 1/Solution 1 (sol1) -------------------->
